Sztotal Energy
-15 0.0263254
-13 -0.0681475
-11 -0.155253
-9 -0.231688
-7 -0.294247
-5 -0.340208
-3 -0.368088
-1 -0.379509
1 -0.379509
3 -0.368088
5 -0.340208
7 -0.294247
9 -0.231688
11 -0.155253
13 -0.0681475
15 0.0263254
