Sztotal Energy
-18 0.0424465
-16 -0.0376508
-14 -0.113455
-12 -0.183021
-10 -0.244374
-8 -0.29562
-6 -0.335119
-4 -0.361787
-2 -0.375811
0 -0.379745
2 -0.375811
4 -0.361787
6 -0.335119
8 -0.29562
10 -0.244374
12 -0.183021
14 -0.113455
16 -0.0376508
18 0.0424465
