Sztotal Energy
-16 0.0323489
-14 -0.0568265
-12 -0.139913
-10 -0.214166
-8 -0.276864
-6 -0.325562
-4 -0.358511
-2 -0.37566
0 -0.380352
2 -0.37566
4 -0.358511
6 -0.325562
8 -0.276864
10 -0.214166
12 -0.139913
14 -0.0568265
16 0.0323489
