Sztotal Energy
-17 0.0376859
-15 -0.0467208
-13 -0.12604
-11 -0.19797
-9 -0.260198
-7 -0.310564
-5 -0.34732
-3 -0.369666
-1 -0.379019
1 -0.379019
3 -0.369666
5 -0.34732
7 -0.310564
9 -0.260198
11 -0.19797
13 -0.12604
15 -0.0467208
17 0.0376859
